# n	T_E [K]
0.100	284.35132
0.110	284.64666
0.120	284.92939
0.130	285.20104
0.140	285.46284
0.150	285.71582
0.160	285.96084
0.170	286.19862
0.180	286.42979
0.190	286.65488
0.200	286.87435
0.210	287.08860
0.220	287.29802
0.230	287.50291
0.240	287.70355
0.250	287.90021
0.260	288.09311
0.270	288.28246
0.280	288.46846
0.290	288.65127
0.300	288.83106
0.310	289.00797
0.320	289.18213
0.330	289.35366
0.340	289.52269
0.350	289.68932
0.360	289.85364
0.370	290.01574
0.380	290.17572
0.390	290.33365
0.400	290.48961
0.410	290.64366
0.420	290.79587
0.430	290.94632
0.440	291.09504
0.450	291.24210
0.460	291.38756
0.470	291.53145
0.480	291.67384
0.490	291.81475
0.500	291.95424
0.510	292.09234
0.520	292.22909
0.530	292.36453
0.540	292.49870
0.550	292.63162
0.560	292.76333
0.570	292.89386
0.580	293.02323
0.590	293.15148
0.600	293.27862
0.610	293.40470
0.620	293.52972
0.630	293.65372
0.640	293.77672
0.650	293.89873
0.660	294.01978
0.670	294.13989
0.680	294.25908
0.690	294.37737
0.700	294.49477
0.710	294.61130
0.720	294.72698
0.730	294.84183
0.740	294.95585
0.750	295.06907
0.760	295.18150
0.770	295.29316
0.780	295.40405
0.790	295.51419
0.800	295.62360
0.810	295.73228
0.820	295.84025
0.830	295.94753
0.840	296.05411
0.850	296.16001
0.860	296.26526
0.870	296.36984
0.880	296.47377
0.890	296.57706
0.900	296.67973
0.910	296.78178
0.920	296.88323
0.930	296.98407
0.940	297.08432
0.950	297.18399
0.960	297.28308
0.970	297.38160
0.980	297.47957
0.990	297.57698
1.000	297.67385
1.010	297.77018
1.020	297.86598
1.030	297.96125
1.040	298.05601
1.050	298.15026
1.060	298.24400
1.070	298.33724
1.080	298.43000
1.090	298.52226
1.100	298.61405
1.110	298.70536
1.120	298.79620
1.130	298.88658
1.140	298.97650
1.150	299.06596
1.160	299.15498
1.170	299.24356
1.180	299.33169
1.190	299.41940
1.200	299.50667
1.210	299.59352
1.220	299.67995
1.230	299.76596
1.240	299.85157
1.250	299.93676
1.260	300.02156
1.270	300.10595
1.280	300.18995
1.290	300.27356
1.300	300.35678
1.310	300.43962
1.320	300.52208
1.330	300.60416
1.340	300.68587
1.350	300.76721
1.360	300.84819
1.370	300.92881
1.380	301.00906
1.390	301.08896
1.400	301.16851
1.410	301.24771
1.420	301.32657
1.430	301.40508
1.440	301.48325
1.450	301.56108
1.460	301.63858
1.470	301.71575
1.480	301.79259
1.490	301.86911
1.500	301.94530
1.510	302.02117
1.520	302.09673
1.530	302.17197
1.540	302.24676
1.550	302.32138
1.560	302.39582
1.570	302.46982
1.580	302.54353
1.590	302.61693
1.600	302.69008
1.610	302.76284
1.620	302.83536
1.630	302.90758
1.640	302.97951
1.650	303.05116
1.660	303.12253
1.670	303.19361
1.680	303.26441
1.690	303.33492
1.700	303.40518
1.710	303.47515
1.720	303.54485
1.730	303.61427
1.740	303.68343
1.750	303.75233
1.760	303.82095
1.770	303.88932
1.780	303.95742
1.790	304.02527
1.800	304.09285
1.810	304.16018
1.820	304.22726
1.830	304.29409
1.840	304.36066
1.850	304.42698
1.860	304.49306
1.870	304.55889
1.880	304.62448
1.890	304.68982
1.900	304.75492
1.910	304.81978
1.920	304.88441
1.930	304.94879
1.940	305.01295
1.950	305.07687
1.960	305.14055
1.970	305.20401
1.980	305.26723
1.990	305.33023
2.000	305.39300
2.010	305.45555
2.020	305.51787
2.030	305.57997
2.040	305.64185
2.050	305.70351
2.060	305.76495
2.070	305.82617
2.080	305.88717
2.090	305.94796
2.100	306.00854
2.110	306.06890
2.120	306.12906
2.130	306.18900
2.140	306.24874
2.150	306.30826
2.160	306.36758
2.170	306.42670
2.180	306.48561
2.190	306.54431
2.200	306.60282
2.210	306.66112
2.220	306.71923
2.230	306.77713
2.240	306.83484
2.250	306.89235
2.260	306.94966
2.270	307.00678
2.280	307.06371
2.290	307.12045
2.300	307.17699
2.310	307.23334
2.320	307.28951
2.330	307.34548
2.340	307.40127
2.350	307.45687
2.360	307.51228
2.370	307.56751
2.380	307.62256
2.390	307.67742
2.400	307.73210
2.410	307.78660
2.420	307.84092
2.430	307.89506
2.440	307.94902
2.450	308.00281
2.460	308.05642
2.470	308.10985
2.480	308.16311
2.490	308.21619
2.500	308.26910
2.510	308.32184
2.520	308.37440
2.530	308.42680
2.540	308.47902
2.550	308.53108
2.560	308.58296
2.570	308.63468
2.580	308.68624
2.590	308.73762
2.600	308.78884
2.610	308.83990
2.620	308.89079
2.630	308.94152
2.640	308.99209
2.650	309.04250
2.660	309.09274
2.670	309.14283
2.680	309.19275
2.690	309.24252
2.700	309.29213
2.710	309.34158
2.720	309.39088
2.730	309.44001
2.740	309.48900
2.750	309.53782
2.760	309.58650
2.770	309.63502
2.780	309.68340
2.790	309.73161
2.800	309.77968
2.810	309.82760
2.820	309.87537
2.830	309.92298
2.840	309.97045
2.850	310.01777
2.860	310.06495
2.870	310.11197
2.880	310.15885
2.890	310.20615
2.900	310.25274
2.910	310.29863
2.920	310.34493
2.930	310.39109
2.940	310.43711
2.950	310.48298
2.960	310.52871
2.970	310.57431
2.980	310.61976
2.990	310.66507
3.000	310.71025
3.010	310.75528
3.020	310.80018
3.030	310.84494
3.040	310.88957
3.050	310.93405
3.060	310.97841
3.070	311.02262
3.080	311.06670
3.090	311.11065
3.100	311.15447
3.110	311.19815
3.120	311.24170
3.130	311.28511
3.140	311.32840
3.150	311.37155
3.160	311.41458
3.170	311.45747
3.180	311.50024
3.190	311.54287
3.200	311.58538
3.210	311.62776
3.220	311.67001
3.230	311.71214
3.240	311.75414
3.250	311.79601
3.260	311.83776
3.270	311.87938
3.280	311.92088
3.290	311.96225
3.300	312.00350
3.310	312.04463
3.320	312.08563
3.330	312.12651
3.340	312.16727
3.350	312.20791
3.360	312.24843
3.370	312.28883
3.380	312.32910
3.390	312.36926
3.400	312.40930
3.410	312.44922
3.420	312.48902
3.430	312.52871
3.440	312.56827
3.450	312.60772
3.460	312.64706
3.470	312.68627
3.480	312.72537
3.490	312.76436
3.500	312.80323
3.510	312.84199
3.520	312.88063
3.530	312.91916
3.540	312.95758
3.550	312.99588
3.560	313.03407
3.570	313.07215
3.580	313.11012
3.590	313.14797
3.600	313.18572
3.610	313.22335
3.620	313.26088
3.630	313.29829
3.640	313.33560
3.650	313.37280
3.660	313.40989
3.670	313.44687
3.680	313.48374
3.690	313.52051
3.700	313.55716
3.710	313.59371
3.720	313.63016
3.730	313.66650
3.740	313.70273
3.750	313.73886
3.760	313.77489
3.770	313.81081
3.780	313.84662
3.790	313.88234
3.800	313.91795
3.810	313.95345
3.820	313.98885
3.830	314.02415
3.840	314.05935
3.850	314.09445
3.860	314.12945
3.870	314.16434
3.880	314.19914
3.890	314.23383
3.900	314.26842
3.910	314.30292
3.920	314.33731
3.930	314.37161
3.940	314.40581
3.950	314.43991
3.960	314.47391
3.970	314.50781
3.980	314.54162
3.990	314.57533
4.000	314.60894
4.010	314.64246
4.020	314.67588
4.030	314.70921
4.040	314.74244
4.050	314.77557
4.060	314.80861
4.070	314.84156
4.080	314.87441
4.090	314.90717
4.100	314.93983
4.110	314.97240
4.120	315.00488
4.130	315.03726
4.140	315.06956
4.150	315.10176
4.160	315.13387
4.170	315.16588
4.180	315.19781
4.190	315.22965
4.200	315.26139
4.210	315.29305
4.220	315.32461
4.230	315.35601
4.240	315.38747
4.250	315.41877
4.260	315.44998
4.270	315.48110
4.280	315.51213
4.290	315.54307
4.300	315.57393
4.310	315.60470
4.320	315.63538
4.330	315.66597
4.340	315.69648
4.350	315.72690
4.360	315.75724
4.370	315.78749
4.380	315.81765
4.390	315.84773
4.400	315.87773
4.410	315.90764
4.420	315.93746
4.430	315.96720
4.440	315.99686
4.450	316.02643
4.460	316.05592
4.470	316.08533
4.480	316.11465
4.490	316.14389
4.500	316.17305
4.510	316.20213
4.520	316.23112
4.530	316.26004
4.540	316.28887
4.550	316.31762
4.560	316.34629
4.570	316.37488
4.580	316.40339
4.590	316.43182
4.600	316.46017
4.610	316.48844
4.620	316.51663
4.630	316.54474
4.640	316.57277
4.650	316.60073
4.660	316.62860
4.670	316.65640
4.680	316.68412
4.690	316.71176
4.700	316.73933
4.710	316.76681
4.720	316.79422
4.730	316.82156
4.740	316.84881
4.750	316.87600
4.760	316.90310
4.770	316.93013
4.780	316.95708
4.790	316.98396
4.800	317.01076
4.810	317.03749
4.820	317.06415
4.830	317.09072
4.840	317.11723
4.850	317.14366
4.860	317.17002
4.870	317.19630
4.880	317.22251
4.890	317.24865
4.900	317.27471
4.910	317.30070
4.920	317.32662
4.930	317.35247
4.940	317.37824
4.950	317.40395
4.960	317.42958
4.970	317.45514
4.980	317.48063
4.990	317.50605
5.000	317.53139
5.010	317.55667
5.020	317.58188
5.030	317.60701
5.040	317.63208
5.050	317.65708
5.060	317.68200
5.070	317.70686
5.080	317.73165
5.090	317.75637
5.100	317.78102
5.110	317.80561
5.120	317.83012
5.130	317.85457
5.140	317.87895
5.150	317.90326
5.160	317.92750
5.170	317.95168
5.180	317.97579
5.190	317.99983
5.200	318.02380
5.210	318.04771
5.220	318.07156
5.230	318.09533
5.240	318.11904
5.250	318.14269
5.260	318.16627
5.270	318.18978
5.280	318.21323
5.290	318.23662
5.300	318.25994
5.310	318.28319
5.320	318.30638
5.330	318.32951
5.340	318.35257
5.350	318.37557
5.360	318.39850
5.370	318.42137
5.380	318.44418
5.390	318.46693
5.400	318.48961
5.410	318.51223
5.420	318.53478
5.430	318.55728
5.440	318.57971
5.450	318.60208
5.460	318.62439
5.470	318.64663
5.480	318.66882
5.490	318.69094
5.500	318.71301
5.510	318.73501
5.520	318.75695
5.530	318.77883
5.540	318.80065
5.550	318.82241
5.560	318.84411
5.570	318.86575
5.580	318.88733
5.590	318.90885
5.600	318.93031
5.610	318.95171
5.620	318.97305
5.630	318.99434
5.640	319.01556
5.650	319.03673
5.660	319.05784
5.670	319.07889
5.680	319.09988
5.690	319.12081
5.700	319.14169
5.710	319.16251
5.720	319.18327
5.730	319.20397
5.740	319.22462
5.750	319.24521
5.760	319.26574
5.770	319.28622
5.780	319.30664
5.790	319.32700
5.800	319.34731
5.810	319.36756
5.820	319.38776
5.830	319.40790
5.840	319.42798
5.850	319.44801
5.860	319.46799
5.870	319.48791
5.880	319.50777
5.890	319.52758
5.900	319.54734
5.910	319.56704
5.920	319.58668
5.930	319.60628
5.940	319.62581
5.950	319.64530
5.960	319.66473
5.970	319.68411
5.980	319.70343
5.990	319.72270
6.000	319.74192
6.010	319.76109
6.020	319.78020
6.030	319.79926
6.040	319.81827
6.050	319.83722
6.060	319.85612
6.070	319.87497
6.080	319.89377
6.090	319.91252
6.100	319.93122
6.110	319.94986
6.120	319.96845
6.130	319.98699
6.140	320.00549
6.150	320.02393
6.160	320.04231
6.170	320.06065
6.180	320.07894
6.190	320.09718
6.200	320.11537
6.210	320.13350
6.220	320.15159
6.230	320.16963
6.240	320.18762
6.250	320.20556
6.260	320.22345
6.270	320.24129
6.280	320.25908
6.290	320.27682
6.300	320.29451
6.310	320.31216
6.320	320.32976
6.330	320.34730
6.340	320.36480
6.350	320.38226
6.360	320.39966
6.370	320.41702
6.380	320.43432
6.390	320.45158
6.400	320.46880
6.410	320.48596
6.420	320.50308
6.430	320.52015
6.440	320.53718
6.450	320.55415
6.460	320.57109
6.470	320.58797
6.480	320.60481
6.490	320.62160
6.500	320.63835
6.510	320.65505
6.520	320.67170
6.530	320.68831
6.540	320.70487
6.550	320.72139
6.560	320.73786
6.570	320.75428
6.580	320.77066
6.590	320.78700
6.600	320.80329
6.610	320.81954
6.620	320.83574
6.630	320.85190
6.640	320.86801
6.650	320.88408
6.660	320.90010
6.670	320.91608
6.680	320.93201
6.690	320.94791
6.700	320.96375
6.710	320.97956
6.720	320.99532
6.730	321.01104
6.740	321.02671
6.750	321.04234
6.760	321.05793
6.770	321.07348
6.780	321.08898
6.790	321.10444
6.800	321.11986
6.810	321.13523
6.820	321.15057
6.830	321.16586
6.840	321.18111
6.850	321.19631
6.860	321.21148
6.870	321.22660
6.880	321.24168
6.890	321.25672
6.900	321.27172
6.910	321.28668
6.920	321.30160
6.930	321.31647
6.940	321.33131
6.950	321.34610
6.960	321.36085
6.970	321.37556
6.980	321.39024
6.990	321.40487
7.000	321.41946
7.010	321.43401
7.020	321.44852
7.030	321.46299
7.040	321.47742
7.050	321.49181
7.060	321.50616
7.070	321.52048
7.080	321.53475
7.090	321.54898
7.100	321.56318
7.110	321.57733
7.120	321.59145
7.130	321.60553
7.140	321.61956
7.150	321.63356
7.160	321.64752
7.170	321.66145
7.180	321.67533
7.190	321.68918
7.200	321.70299
7.210	321.71676
7.220	321.73049
7.230	321.74417
7.240	321.75783
7.250	321.77145
7.260	321.78503
7.270	321.79857
7.280	321.81208
7.290	321.82555
7.300	321.83898
7.310	321.85238
7.320	321.86573
7.330	321.87906
7.340	321.89234
7.350	321.90559
7.360	321.91880
7.370	321.93197
7.380	321.94511
7.390	321.95821
7.400	321.97128
7.410	321.98431
7.420	321.99730
7.430	322.01026
7.440	322.02318
7.450	322.03607
7.460	322.04892
7.470	322.06174
7.480	322.07452
7.490	322.08727
7.500	322.09998
7.510	322.11265
7.520	322.12529
7.530	322.13789
7.540	322.15046
7.550	322.16300
7.560	322.17550
7.570	322.18796
7.580	322.20040
7.590	322.21279
7.600	322.22515
7.610	322.23748
7.620	322.24978
7.630	322.26204
7.640	322.27426
7.650	322.28646
7.660	322.29629
7.670	322.31074
7.680	322.32283
7.690	322.33489
7.700	322.34691
7.710	322.35891
7.720	322.37086
7.730	322.38279
7.740	322.39468
7.750	322.40654
7.760	322.41837
7.770	322.43016
7.780	322.44192
7.790	322.45365
7.800	322.46535
7.810	322.47701
7.820	322.48864
7.830	322.50024
7.840	322.51180
7.850	322.52334
7.860	322.53484
7.870	322.54631
7.880	322.55775
7.890	322.56916
7.900	322.58053
7.910	322.59188
7.920	322.60319
7.930	322.61447
7.940	322.62572
7.950	322.63694
7.960	322.64813
7.970	322.65928
7.980	322.67041
7.990	322.68150
8.000	322.69257
8.010	322.70360
8.020	322.71460
8.030	322.72557
8.040	322.73652
8.050	322.74743
8.060	322.75832
8.070	322.76917
8.080	322.77998
8.090	322.79077
8.100	322.80153
8.110	322.81226
8.120	322.82296
8.130	322.83363
8.140	322.84427
8.150	322.85488
8.160	322.86546
8.170	322.87601
8.180	322.88654
8.190	322.89703
8.200	322.90749
8.210	322.91793
8.220	322.92833
8.230	322.93871
8.240	322.94906
8.250	322.95938
8.260	322.96967
8.270	322.97993
8.280	322.99016
8.290	323.00037
8.300	323.01054
8.310	323.02069
8.320	323.03081
8.330	323.04090
8.340	323.05096
8.350	323.06100
8.360	323.07101
8.370	323.08098
8.380	323.09094
8.390	323.10086
8.400	323.11075
8.410	323.12062
8.420	323.13046
8.430	323.14027
8.440	323.15006
8.450	323.15982
8.460	323.16955
8.470	323.17925
8.480	323.18893
8.490	323.19858
8.500	323.20820
8.510	323.21779
8.520	323.22736
8.530	323.23690
8.540	323.24642
8.550	323.25591
8.560	323.26537
8.570	323.27480
8.580	323.28421
8.590	323.29359
8.600	323.30295
8.610	323.31228
8.620	323.32158
8.630	323.33086
8.640	323.34011
8.650	323.34934
8.660	323.35854
8.670	323.36771
8.680	323.37686
8.690	323.38598
8.700	323.39508
8.710	323.40415
8.720	323.41319
8.730	323.42221
8.740	323.43121
8.750	323.44018
8.760	323.44912
8.770	323.45804
8.780	323.46693
8.790	323.47580
8.800	323.48465
8.810	323.49347
8.820	323.50226
8.830	323.51103
8.840	323.51977
8.850	323.52849
8.860	323.53719
8.870	323.54586
8.880	323.55451
8.890	323.56313
8.900	323.57173
8.910	323.58030
8.920	323.58885
8.930	323.59738
8.940	323.60587
8.950	323.61435
8.960	323.62280
8.970	323.63122
8.980	323.63963
8.990	323.64801
9.000	323.65638
9.010	323.66472
9.020	323.67303
9.030	323.68131
9.040	323.68958
9.050	323.69782
9.060	323.70604
9.070	323.71423
9.080	323.72240
9.090	323.73055
9.100	323.73867
9.110	323.74677
9.120	323.75485
9.130	323.76291
9.140	323.77094
9.150	323.77895
9.160	323.78694
9.170	323.79490
9.180	323.80284
9.190	323.81076
9.200	323.81866
9.210	323.82653
9.220	323.83438
9.230	323.84221
9.240	323.85002
9.250	323.85781
9.260	323.86557
9.270	323.87331
9.280	323.88103
9.290	323.88871
9.300	323.89639
9.310	323.90404
9.320	323.91167
9.330	323.91928
9.340	323.92687
9.350	323.93443
9.360	323.94199
9.370	323.94952
9.380	323.95702
9.390	323.96450
9.400	323.97196
9.410	323.97940
9.420	323.98681
9.430	323.99421
9.440	324.00158
9.450	324.00893
9.460	324.01627
9.470	324.02358
9.480	324.03087
9.490	324.03814
9.500	324.04539
9.510	324.05261
9.520	324.05982
9.530	324.06701
9.540	324.07417
9.550	324.08132
9.560	324.08844
9.570	324.09555
9.580	324.10263
9.590	324.10969
9.600	324.11674
9.610	324.12376
9.620	324.13076
9.630	324.13774
9.640	324.14471
9.650	324.15165
9.660	324.15857
9.670	324.16547
9.680	324.17236
9.690	324.17922
9.700	324.18607
9.710	324.19289
9.720	324.19969
9.730	324.20648
9.740	324.21324
9.750	324.21998
9.760	324.22671
9.770	324.23342
9.780	324.24010
9.790	324.24677
9.800	324.25342
9.810	324.26005
9.820	324.26666
9.830	324.27325
9.840	324.27982
9.850	324.28637
9.860	324.29291
9.870	324.29942
9.880	324.30592
9.890	324.31240
9.900	324.31886
9.910	324.32530
9.920	324.33172
9.930	324.33812
9.940	324.34450
9.950	324.35087
9.960	324.35721
9.970	324.36354
9.980	324.36985
9.990	324.37614
10.000	324.38242
